#Wave		#Intensity
1760.096680	162.865128
1759.126953	160.359512
1758.157227	132.771103
1757.186523	165.304428
1756.216797	142.734283
1755.246094	137.698425
1754.275391	152.689407
1753.303711	130.135330
1752.333008	160.134384
1751.361328	150.095825
1750.389648	155.067856
1749.417969	142.533722
1748.446289	147.505234
1747.473633	147.475571
1746.501953	157.442230
1745.529297	159.909119
1744.556641	147.386551
1743.583008	147.356873
1742.610352	144.830109
1741.636719	162.276917
1740.663086	134.787491
1739.689453	137.255875
1738.715820	147.208435
1737.741211	159.651520
1736.767578	159.619308
1735.792969	164.574188
1734.818359	147.089645
1733.842773	174.477890
1732.868164	142.046158
1731.892578	179.390472
1730.916992	154.443909
1729.941406	151.922150
1728.965820	134.461273
1727.989258	161.818787
1727.013672	169.253098
1726.037109	169.218842
1725.060547	171.672592
1724.083008	154.225296
1723.106445	139.272049
1722.128906	146.703323
1721.151367	149.159576
1720.173828	159.071304
1719.196289	168.978989
1718.217773	151.553345
1717.239258	181.330322
1716.260742	166.392685
1715.282227	166.358902
1714.303711	186.184845
1713.324219	178.701141
1712.345703	143.924454
1711.366211	151.338058
1710.385742	158.748642
1709.406250	171.116074
1708.425781	171.081284
1707.446289	168.567535
1706.465820	180.925385
1705.484375	168.498932
1704.503906	165.987213
1703.522461	170.907242
1702.541992	158.490372
1701.560547	173.313522
1700.578125	150.999573
1699.596680	168.293076
1698.614258	178.156326
1697.632812	165.750549
1696.649414	183.030426
1695.666992	175.574432
1694.684570	185.428085
1693.701172	175.502747
1692.717773	170.524170
1691.734375	165.547623
1690.750977	172.924866
1689.766602	150.660858
1688.783203	162.976791
1687.798828	180.225342
1686.814453	177.720139
1685.829102	192.490768
1684.844727	152.974167
1683.859375	172.677414
1682.874023	160.310486
1681.888672	170.140900
1680.903320	184.897873
1679.916992	162.676788
1678.931641	197.143570
1677.945312	197.103149
1676.958008	184.746323
1675.971680	192.096756
1674.985352	174.821426
1673.998047	155.091415
1673.010742	167.365891
1672.023438	204.242905
1671.035156	194.359940
1670.047852	189.400528
1669.059570	169.687683
1668.071289	186.863953
1667.082031	199.116699
1666.093750	221.195282
1665.104492	201.492035
1664.115234	174.426727
1663.125977	162.109787
1662.136719	186.633469
1661.147461	184.139847
1660.157227	206.194168
1659.166992	206.151688
1658.176758	191.387131
1657.186523	206.066757
1656.195312	176.592239
1655.204102	193.720993
1654.212891	174.067764
1653.221680	193.641098
1652.230469	186.249207
1651.238281	171.509918
1650.246094	208.219055
1649.253906	208.176071
1648.261719	178.749588
1647.269531	195.849503
1646.276367	168.885300
1645.283203	239.816498
1644.290039	181.048508
1643.296875	195.687653
1642.303711	188.310410
1641.309570	200.496887
1640.315430	198.010818
1639.321289	219.966507
1638.327148	185.711044
1637.332031	207.660141
1636.336914	210.059692
1635.341797	227.110519
1634.346680	212.414215
1633.351562	239.221603
1632.355469	217.207245
1631.359375	222.042267
1630.363281	214.677673
1629.367188	212.194138
1628.371094	236.535187
1627.374023	214.544098
1626.376953	209.624573
1625.379883	212.018051
1624.382812	224.156448
1623.384766	233.853790
1622.387695	199.708618
1621.389648	224.016785
1620.391602	199.625626
1619.392578	223.923660
1618.394531	226.310562
1617.395508	221.397614
1616.396484	223.783997
1615.397461	233.465149
1614.397461	213.965179
1613.398438	216.351562
1612.398438	211.445709
1611.398438	225.981094
1610.398438	221.075241
1609.397461	242.889206
1608.397461	237.981827
1607.396484	228.220703
1606.395508	213.608887
1605.393555	230.552429
1604.392578	237.783417
1603.390625	242.585541
1602.388672	220.706772
1601.386719	235.209778
1600.383789	210.917313
1599.381836	222.992432
1598.378906	230.215836
1597.375977	235.013397
1596.373047	237.386612
1595.369141	259.133270
1594.366211	208.231796
1593.362305	242.079391
1592.358398	258.970795
1591.353516	227.459473
1590.349609	256.443207
1589.344727	215.270462
1588.339844	251.499359
1587.334961	229.686905
1586.329102	234.473328
1585.324219	253.758194
1584.318359	217.461472
1583.312500	215.000183
1582.306641	258.429199
1581.299805	229.398407
1580.293945	239.007172
1579.287109	229.302231
1578.279297	270.278564
1577.272461	234.031464
1576.265625	267.753021
1575.257812	231.521591
1574.250000	248.351242
1573.242188	236.245743
1572.233398	241.016479
1571.225586	231.327225
1570.216797	238.506104
1569.208008	240.864639
1568.198242	269.711700
1567.189453	286.508453
1566.179688	286.448242
1565.169922	245.475449
1564.160156	247.829941
1563.150391	245.372192
1562.139648	242.915482
1561.128906	264.505737
1560.118164	242.813248
1559.107422	249.972885
1558.095703	285.966461
1557.084961	283.503662
1556.073242	283.443939
1555.061523	280.982666
1554.048828	314.538239
1553.037109	300.068665
1552.024414	271.204865
1551.011719	266.348633
1549.999023	268.691498
1548.985352	251.845139
1547.972656	268.578156
1546.958984	266.123962
1545.945312	263.670807
1544.930664	234.857117
1543.916992	265.955475
1542.902344	277.876770
1541.887695	294.582947
1540.873047	263.392517
1539.857422	275.306732
1538.842773	303.970123
1537.827148	279.976288
1536.811523	270.347290
1535.795898	270.290131
1534.779297	289.364502
1533.762695	272.566742
1532.746094	289.242065
1531.729492	272.451385
1530.712891	293.898499
1529.695312	279.502808
1528.677734	277.055237
1527.660156	300.875549
1526.642578	262.613495
1525.625000	286.426758
1524.606445	279.206940
1523.587891	303.006531
1522.569336	257.620239
1521.549805	298.108337
1520.531250	309.966949
1519.511719	293.214203
1518.492188	297.918701
1517.472656	300.238342
1516.452148	319.233337
1515.432617	297.729095
1514.412109	311.953857
1513.390625	288.079407
1512.370117	309.441071
1511.348633	297.476288
1510.328125	283.137268
1509.306641	285.455902
1508.284180	328.204529
1507.262695	328.134766
1506.240234	323.310425
1505.217773	351.763000
1504.195312	342.183105
1503.172852	306.473846
1502.149414	311.159149
1501.125977	332.465729
1500.102539	334.769226
1499.079102	318.081757
1498.054688	370.225311
1497.031250	320.319061
1496.006836	379.556549
1494.982422	396.077759
1493.957031	381.766052
1492.932617	393.538269
1491.907227	421.896881
1490.881836	386.261414
1489.855469	402.763428
1488.830078	442.945282
1487.803711	464.164490
1486.777344	430.917938
1485.750977	478.169525
1484.724609	478.067474
1483.697266	511.091766
1482.669922	503.885681
1481.642578	517.968994
1480.615234	607.715088
1479.586914	574.487305
1478.559570	612.182800
1477.531250	638.046509
1476.501953	706.426392
1475.473633	788.949768
1474.444336	833.651917
1473.415039	935.001648
1472.385742	984.374512
1471.356445	1137.570801
1470.327148	1191.598267
1469.296875	1302.220825
1468.266602	1297.224976
1467.235352	1400.703125
1466.205078	1435.766968
1465.173828	1546.242065
1464.142578	1545.911011
1463.111328	1628.042236
1462.080078	1608.848999
1461.047852	1622.634644
1460.016602	1650.541504
1458.984375	1612.522949
1457.951172	1499.207275
1456.918945	1611.831665
1455.885742	1562.082764
1454.852539	1542.931519
1453.819336	1540.249023
1452.786133	1565.779785
1451.751953	1534.887085
1450.717773	1522.807617
1449.683594	1571.820435
1448.649414	1660.744995
1447.614258	1836.525757
1446.579102	1880.743286
1445.543945	2023.536133
1444.508789	2356.373291
1443.473633	2369.945801
1442.437500	2571.190674
1441.401367	2641.002197
1440.365234	2609.949707
1439.329102	2522.643311
1438.291992	2313.488525
1437.254883	2148.948975
1436.217773	1907.162598
1435.180664	1700.616943
1434.142578	1482.450195
1433.105469	1329.937500
1432.067383	1191.536133
1431.029297	1092.981445
1429.990234	1027.228149
1428.951172	886.641418
1427.913086	930.889954
1426.873047	865.213745
1425.833984	822.944885
1424.794922	869.515686
1423.754883	923.077026
1422.714844	911.196045
1421.674805	1048.817505
1420.633789	1165.360840
1419.592773	1151.100220
1418.551758	1283.911865
1417.510742	1192.613403
1416.469727	1162.022095
1415.427734	1028.797485
1414.385742	925.951111
1413.343750	811.489746
1412.301758	601.491760
1411.258789	582.714966
1410.216797	482.383789
1409.173828	456.651184
1408.129883	428.600311
1407.086914	402.890381
1406.042969	395.818268
1404.999023	439.961639
1403.955078	390.992462
1402.911133	395.561584
1401.866211	360.581085
1400.821289	346.548126
1399.776367	392.979614
1398.731445	358.022278
1397.685547	413.728394
1396.639648	390.400696
1395.593750	381.022919
1394.547852	399.522888
1393.501953	406.403290
1392.455078	399.349854
1391.408203	410.869812
1390.361328	387.572845
1389.313477	399.090332
1388.266602	394.364258
1387.218750	398.917328
1386.170898	384.918152
1385.122070	394.107788
1384.074219	403.293427
1383.025391	433.330536
1381.976562	428.602997
1380.927734	437.775085
1379.877930	437.680084
1378.828125	446.846130
1377.778320	432.860565
1376.728516	476.737518
1375.678711	467.378967
1374.627930	495.036530
1373.577148	536.558533
1372.526367	534.129700
1371.475586	628.795288
1370.423828	591.678711
1369.372070	517.606384
1368.320312	538.286011
1367.268555	494.283936
1366.215820	517.268799
1365.163086	519.465027
1364.110352	487.036835
1363.057617	450.007202
1362.004883	436.065918
1360.951172	465.958435
1359.897461	426.651245
1358.843750	456.532745
1357.789062	426.465485
1356.735352	426.372620
1355.680664	430.888184
1354.625977	430.794342
1353.570312	437.610107
1352.515625	467.449982
1351.459961	402.886292
1350.404297	430.418976
1349.347656	446.433563
1348.291992	425.629913
1347.235352	455.439697
1346.178711	450.740967
1345.122070	388.564331
1344.064453	432.154785
1343.007812	429.762299
1341.950195	404.393890
1340.891602	424.980347
1339.833984	422.590881
1338.775391	447.756683
1337.716797	436.180481
1336.658203	420.018921
1335.599609	401.569702
1334.540039	424.423798
1333.480469	433.505798
1332.420898	465.515594
1331.361328	456.243134
1330.300781	419.468536
1329.241211	446.876953
1328.179688	481.146881
1327.119141	522.273804
1326.058594	485.516785
1324.997070	492.279602
1323.935547	526.509460
1322.874023	579.033691
1321.811523	578.906921
1320.750000	521.588501
1319.687500	564.930481
1318.624023	583.100159
1317.561523	626.409607
1316.498047	582.844788
1315.434570	646.701721
1314.371094	676.260681
1313.307617	740.069031
1312.243164	746.757874
1311.178711	751.160461
1310.114258	739.582520
1309.049805	874.067871
1307.984375	878.439514
1306.919922	864.559875
1305.854492	955.596680
1304.788086	916.624268
1303.722656	1071.440063
1302.656250	1196.558594
1301.589844	1440.112549
1300.523438	1854.421265
1299.456055	2243.493652
1298.388672	2748.530273
1297.321289	3084.872070
1296.253906	3375.542725
1295.186523	3317.909668
1294.118164	3060.087891
1293.049805	2427.060303
1291.981445	1792.036743
1290.913086	1223.228271
1289.843750	1016.101868
1288.774414	824.975098
1287.705078	702.097107
1286.635742	667.867798
1285.565430	613.213013
1284.495117	590.371521
1283.424805	572.080322
1282.354492	510.673584
1281.283203	483.331238
1280.211914	492.299469
1279.140625	487.654755
1278.069336	453.532440
1276.997070	457.966858
1275.925781	426.132690
1274.853516	435.103485
1273.780273	473.523895
1272.708008	428.116241
1271.634766	430.286530
1270.561523	480.003357
1269.488281	396.141815
1268.414062	420.949310
1267.340820	423.119141
1266.266602	395.879761
1265.191406	416.147461
1264.117188	384.399231
1263.041992	377.532379
1261.966797	386.489746
1260.891602	350.249634
1259.816406	359.209015
1258.740234	356.871033
1257.664062	347.759491
1256.587891	322.848206
1255.510742	349.863068
1254.434570	309.165466
1253.357422	327.146637
1252.280273	304.517456
1251.202148	306.705353
1250.125000	351.731293
1249.046875	322.349060
1247.968750	304.248260
1246.889648	295.168182
1245.811523	313.124451
1244.732422	297.289795
1243.653320	317.489288
1242.574219	303.911835
1241.494141	301.593872
1240.414062	303.777313
1239.333984	290.211823
1238.253906	299.144379
1237.172852	278.839752
1236.091797	290.019043
1235.010742	296.697906
1233.929688	269.665619
1232.848633	269.605865
1231.766602	287.515839
1230.684570	269.486359
1229.602539	309.840576
1228.519531	294.058807
1227.436523	291.749390
1226.353516	246.810104
1225.270508	289.376709
1224.186523	264.642456
1223.103516	273.552673
1222.019531	280.217163
1220.934570	284.637451
1219.850586	286.815002
1218.765625	262.108612
1217.680664	266.529907
1216.595703	255.274460
1215.510742	282.082794
1214.424805	284.258362
1213.338867	266.293152
1212.252930	252.810394
1211.166016	275.121826
1210.079102	266.115601
1208.993164	259.349121
1207.905273	254.820908
1206.818359	259.233795
1205.730469	252.473297
1204.642578	236.780655
1203.554688	232.261414
1202.466797	247.839218
1201.377930	270.106934
1200.289062	252.192474
1199.200195	258.830200
1198.110352	258.772583
1197.021484	267.636139
1195.931641	238.589081
1194.840820	220.701462
1193.750977	309.804718
1192.660156	229.516373
1191.569336	256.199036
1190.478516	260.596558
1189.387695	267.218933
1188.295898	247.122391
1187.204102	296.035583
1186.112305	287.068207
1185.020508	298.128357
1183.927734	282.491425
1182.834961	275.756866
1181.742188	262.355225
1180.648438	291.193756
1179.555664	304.462860
1178.461914	339.944641
1177.368164	346.532837
1176.273438	353.118042
1175.179688	373.022491
1174.084961	435.095673
1172.989258	468.289154
1171.894531	514.781067
1170.798828	536.849854
1169.703125	578.869751
1168.607422	503.348877
1167.511719	487.718018
1166.415039	425.549622
1165.318359	427.670319
1164.221680	383.266388
1163.125000	354.386688
1162.027344	374.237183
1160.929688	318.805267
1159.832031	360.789062
1158.733398	371.772949
1157.635742	325.228485
1156.537109	322.943695
1155.437500	373.734650
1154.338867	298.478546
1153.239258	333.778961
1152.139648	331.494202
1151.040039	340.257751
1149.940430	366.689117
1148.839844	417.401825
1147.739258	410.684265
1146.638672	415.007141
1145.537109	403.879089
1144.436523	394.962494
1143.334961	416.933868
1142.232422	432.278809
1141.130859	522.587158
1140.028320	533.492432
1138.925781	559.820862
1137.823242	641.225525
1136.719727	771.060181
1135.617188	944.887207
1134.513672	1116.433960
1133.409180	1369.360718
1132.305664	1613.369507
1131.201172	1874.872925
1130.096680	1955.853638
1128.992188	2041.196899
1127.886719	1913.191650
1126.781250	1699.499512
1125.675781	1307.858643
1124.570312	1125.164673
1123.464844	898.610901
1122.358398	760.022949
1121.251953	623.693420
1120.144531	614.770569
1119.038086	546.583557
1117.930664	502.568085
1116.823242	511.231384
1115.715820	467.243561
1114.607422	445.206909
1113.499023	436.336029
1112.390625	423.084778
1111.282227	414.222778
1110.172852	420.702881
1109.063477	400.891998
1107.954102	389.850739
1106.844727	363.486633
1105.734375	394.053223
1104.624023	354.567871
1103.513672	339.170471
1102.403320	374.097168
1101.291992	378.387115
1100.180664	389.235260
1099.069336	391.333588
1097.957031	395.616669
1096.845703	415.194397
1095.733398	410.731110
1094.620117	419.375275
1093.507812	432.382996
1092.394531	447.568085
1091.281250	482.391144
1090.167969	501.922516
1089.054688	501.808990
1087.940430	492.970337
1086.826172	492.858826
1085.710938	523.271484
1084.596680	549.310730
1083.481445	503.420837
1082.366211	553.419678
1081.250977	540.224426
1080.134766	518.323792
1079.018555	518.206421
1077.902344	544.211121
1076.786133	526.677002
1075.668945	543.964539
1074.551758	578.647095
1073.434570	552.417480
1072.317383	602.302917
1071.199219	665.209045
1070.081055	760.687500
1068.962891	969.113342
1067.844727	1175.272095
1066.725586	1416.087891
1065.606445	1656.794312
1064.487305	1871.340088
1063.368164	1994.630127
1062.248047	1972.477783
1061.127930	1776.779297
1060.007812	1641.900391
1058.886719	1333.605469
1057.765625	1066.641968
1056.644531	882.163940
1055.523438	723.773438
1054.402344	615.284180
1053.280273	556.662292
1052.158203	508.894501
1051.035156	448.158325
1049.913086	404.765900
1048.790039	421.986053
1047.666992	395.927582
1046.542969	367.717865
1045.419922	369.796722
1044.295898	348.091919
1043.171875	363.143616
1042.046875	360.899841
1040.922852	347.854126
1039.797852	304.573029
1038.671875	362.812836
1037.546875	321.707092
1036.420898	315.157928
1035.294922	319.402313
1034.168945	304.226044
1033.041992	301.999542
1031.916016	319.183838
1030.789062	301.861755
1029.661133	299.637238
1028.534180	258.620575
1027.406250	293.036438
1026.278320	282.198578
1025.149414	297.210022
1024.021484	273.456909
1022.892578	292.768860
1021.763672	284.093079
1020.633789	286.179901
1019.503906	258.148407
1018.375000	286.049103
1017.244141	255.880142
1016.114258	273.019745
1014.983398	279.405090
1013.852539	236.365616
1012.721680	257.794403
1011.589844	238.405273
1010.458008	223.319580
1009.326172	249.030212
1008.194336	261.851105
1007.061523	253.207840
1005.929688	253.149857
1004.795898	231.643402
1003.663086	238.023392
1002.529297	240.112717
1001.395508	225.054077
1000.261719	222.859604
999.127930	220.666122
997.993164	222.757416
996.858398	263.393066
995.723633	220.514328
994.587891	207.621185
993.452148	218.273209
992.316406	235.338654
991.180664	239.562531
990.043945	224.538300
988.907227	237.314545
987.770508	226.572647
986.633789	213.698685
985.496094	222.195557
984.358398	215.736481
983.220703	232.771011
982.083008	222.042374
980.944336	228.394913
979.805664	226.208344
978.666992	211.221466
977.527344	221.838165
976.387695	194.063736
975.248047	204.679459
974.108398	219.553452
972.967773	225.896179
971.827148	225.844162
970.686523	217.271683
969.545898	200.184647
968.404297	212.913315
967.262695	202.221039
966.121094	200.046280
964.978516	214.893784
963.835938	233.988770
962.693359	227.554764
961.550781	208.366577
960.407227	210.444199
959.264648	223.146896
958.120117	237.968414
956.976562	212.422745
955.832031	212.373703
954.687500	231.433884
953.542969	208.030106
952.398438	212.226578
951.252930	201.568665
950.107422	216.371078
948.961914	190.871521
947.815430	199.308609
946.668945	216.221039
945.522461	199.216431
944.375977	218.239853
943.228516	180.059174
942.081055	226.610275
940.933594	230.792557
939.786133	201.102905
938.637695	224.336548
937.489258	211.589233
936.340820	205.194016
935.191406	230.525421
934.041992	222.014313
932.892578	238.874298
931.743164	217.684509
930.592773	230.311737
929.442383	238.708176
928.291992	215.421112
927.140625	225.928543
925.990234	232.209091
924.838867	232.155197
923.686523	227.881271
922.535156	210.952194
921.382812	219.339325
920.230469	240.373795
919.077148	223.453537
917.924805	210.756226
916.771484	244.420410
915.618164	242.257004
914.463867	240.094574
913.309570	229.510727
912.155273	233.667572
911.000977	231.508575
909.845703	233.558838
908.691406	233.504471
907.535156	239.759583
906.379883	235.498413
905.223633	231.239227
904.067383	231.185364
902.911133	247.941055
901.754883	233.178345
900.597656	222.622910
899.440430	218.371552
898.282227	247.709946
897.125000	241.355927
895.966797	266.478729
894.808594	241.243332
893.649414	243.284302
892.491211	255.808243
891.332031	270.422607
890.171875	249.401367
889.012695	253.533768
887.852539	268.138336
886.692383	245.037933
885.531250	242.886810
884.371094	263.763672
883.209961	261.609131
882.048828	255.270782
880.886719	274.038116
879.724609	230.054504
878.562500	250.909821
877.400391	250.851105
876.237305	259.152130
875.074219	252.823090
873.911133	256.941803
872.748047	248.527725
871.583984	238.029602
870.419922	242.148788
869.255859	250.440033
868.090820	248.294800
866.925781	237.806473
865.760742	262.777069
864.595703	273.140656
863.429688	258.484680
862.263672	245.919617
861.097656	239.611160
859.930664	224.973282
858.763672	229.085648
857.596680	231.113937
856.429688	268.528748
855.261719	235.167587
854.093750	243.434860
852.925781	224.656265
851.757812	224.603439
850.588867	237.025635
849.419922	228.655136
848.250000	247.305069
847.081055	226.469818
845.911133	220.184845
844.741211	226.363174
843.570312	232.538574
842.399414	209.650558
841.228516	232.429001
840.057617	226.149902
838.885742	199.130951
837.714844	228.117065
836.541992	217.696747
835.370117	225.936646
834.197266	196.870804
833.024414	184.393326
831.851562	202.991913
830.677734	186.377121
829.503906	219.458984
828.330078	198.708359
827.156250	202.800186
825.981445	200.683365
824.806641	208.909561
823.631836	202.656403
822.456055	200.541046
821.280273	198.426651
820.104492	214.911346
818.928711	177.673096
817.751953	200.351288
816.575195	212.693771
815.398438	214.707901
814.220703	200.208969
813.042969	173.335770
811.865234	193.925003
810.687500	191.816498
809.508789	181.460739
808.330078	175.233017
807.151367	193.741119
805.971680	191.634567
804.791992	183.348694
803.612305	187.424393
802.432617	189.439011
801.251953	205.863068
800.071289	197.581604
798.890625	207.822906
797.708984	189.259048
796.527344	191.270737
795.345703	160.382477
794.164062	174.734207
792.981445	182.913467
791.798828	162.322754
790.615234	211.585632
789.432617	203.320297
788.249023	197.112137
787.065430	190.906891
785.880859	176.495499
784.697266	194.919510
783.511719	176.411392
782.327148	172.267715
781.142578	186.578857
779.957031	184.484528
778.770508	180.341827
777.584961	163.907990
776.398438	170.013962
775.211914	165.877625
774.025391	182.217072
772.837891	176.032852
771.650391	186.222824
770.462891	186.178314
769.274414	204.542648
768.085938	169.729797
766.897461	175.822556
765.708984	194.176132
764.519531	179.825378
763.330078	165.481461
762.140625	173.611816
760.950195	171.528229
759.760742	175.570175
758.569336	171.446060
757.378906	179.567123
756.187500	181.564117
754.996094	191.718369
753.804688	181.477051
752.612305	179.394943
751.419922	189.542343
750.227539	167.083237
749.035156	179.265793
747.841797	164.966400
746.648438	171.035172
745.454102	185.243576
744.260742	185.199066
743.066406	152.599899
741.872070	168.836624
740.676758	183.031815
739.481445	144.357025
738.286133	172.780212
737.090820	154.448654
735.894531	162.538391
734.698242	160.468002
733.501953	158.398605
732.304688	168.511749
731.107422	172.530670
729.910156	182.635498
728.711914	162.303528
727.513672	166.320984
726.315430	160.197418
725.117188	176.377365
723.917969	212.817841
722.718750	178.318558
721.519531	188.404770
720.319336	176.207047
719.120117	178.189346
717.918945	168.024338
716.718750	163.935913
715.517578	165.919678
714.316406	157.787857
713.115234	151.682373
711.913086	133.448181
710.710938	155.651855
709.508789	137.425491
708.305664	131.330780
707.102539	133.318954
705.899414	125.208664
704.696289	133.254333
703.492188	117.073891
702.288086	135.207718
701.083984	108.946953
699.878906	114.971649
698.673828	116.960297
697.468750	116.931892
696.262695	133.028107
695.057617	118.890175
693.850586	114.832092
692.644531	112.790070
691.437500	116.789879
690.230469	110.722084
689.023438	108.682510
687.815430	114.692505
686.607422	132.769516
685.399414	128.714859
684.190430	126.672821
682.982422	108.550255
681.772461	112.543198
680.563477	110.506554
679.353516	110.479607
678.143555	96.395050
676.933594	110.425713
675.722656	126.456764
674.511719	126.425896
673.300781	112.351135
672.088867	106.306351
670.876953	126.333275
669.665039	120.288002
668.453125	122.262909
667.240234	118.225372
666.027344	118.196449
664.813477	114.161850
663.600586	126.148010
662.386719	112.104111
661.171875	114.078026
